Wavelength(nm)	alpha (source : Absorption spectrum ~380 –700 nm! of pure water. II. Integrating cavity measurements)
380.0 0.01137 
382.5 0.01044 
385.0 0.00941 
387.5 0.00917 
390.0 0.00851 
392.5 0.00829 
395.0 0.00813 
397.5 0.00775 
400.0 0.00663 
402.5 0.00579 
405.0 0.00530 
407.5 0.00503 
410.0 0.00473 
412.5 0.00452 
415.0 0.00444 
417.5 0.00442 
420.0 0.00454 
422.5 0.00474 
425.0 0.00478 
427.5 0.00482 
430.0 0.00495 
432.5 0.00504 
435.0 0.00530 
437.5 0.00580 
440.0 0.00635 
442.5 0.00696 
445.0 0.00751 
447.5 0.00830 
450.0 0.00922 
452.5 0.00969 
455.0 0.00962 
457.5 0.00957 
460.0 0.00979 
462.5 0.01005 
465.0 0.01011 
467.5 0.0102  
470.0 0.0106  
472.5 0.0109  
475.0 0.0114  
477.5 0.0121  
480.0 0.0127  
482.5 0.0131  
485.0 0.0136  
487.5 0.0144  
490.0 0.0150  
492.5 0.0162  
495.0 0.0173  
497.5 0.0191  
500.0 0.0204  
502.5 0.0228  
505.0 0.0256  
507.5 0.0280  
510.0 0.0325  
512.5 0.0372  
515.0 0.0396  
517.5 0.0399  
520.0 0.0409  
522.5 0.0416  
525.0 0.0417  
527.5 0.0428  
530.0 0.0434  
532.5 0.0447  
535.0 0.0452  
537.5 0.0466  
540.0 0.0474  
542.5 0.0489  
545.0 0.0511  
547.5 0.0537  
550.0 0.0565  
552.5 0.0593  
555.0 0.0596  
557.5 0.0606  
560.0 0.0619  
562.5 0.0640  
565.0 0.0642  
567.5 0.0672  
570.0 0.0695  
572.5 0.0733  
575.0 0.0772  
577.5 0.0836  
580.0 0.0896  
582.5 0.0989  
585.0 0.1100  
587.5 0.1220  
590.0 0.1351  
592.5 0.1516  
595.0 0.1672  
597.5 0.1925  
600.0 0.2224  
602.5 0.2470  
605.0 0.2577  
607.5 0.2629  
610.0 0.2644  
612.5 0.2665  
615.0 0.2678  
617.5 0.2707  
620.0 0.2755  
622.5 0.2810  
625.0 0.2834  
627.5 0.2904  
630.0 0.2916  
632.5 0.2995  
635.0 0.3012  
637.5 0.3077  
640.0 0.3108  
642.5 0.322   
645.0 0.325   
647.5 0.335   
650.0 0.340   
652.5 0.358   
655.0 0.371   
657.5 0.393   
660.0 0.410   
662.5 0.424   
665.0 0.429   
667.5 0.436   
670.0 0.439   
672.5 0.448   
675.0 0.448   
677.5 0.461  
680.0 0.465  
682.5 0.478  
685.0 0.486  
687.5 0.502  
690.0 0.516  
692.5 0.538  
695.0 0.559 
697.5 0.592 
700.0 0.624 
702.5 0.663 
705.0 0.704 
707.5 0.756 
710.0 0.827 
712.5 0.914 
715.0 1.007 
717.5 1.119 
720.0 1.231 
722.5 1.356 
725.0 1.489 
727.5 1.678 